# multipoles
# s[mm] polynom_b[n=1][T/m^n] polynom_b[n=5][T/m^n] polynom_b[n=9][T/m^n] polynom_b[n=13][T/m^n] 
+0.0000000000000000e+00 +4.7418140941572467e+01 -3.4309814580171118e+06 +2.1660661478930416e+14 -3.7992536023662608e+21 
+1.0000000000000001e-01 +4.7418140729363671e+01 -3.4308262583227619e+06 +2.1658588441790012e+14 -3.7985268581093548e+21 
+2.0000000000000001e-01 +4.7418140120622887e+01 -3.4303927941358415e+06 +2.1652761719603906e+14 -3.7964755000688467e+21 
+3.0000000000000004e-01 +4.7418139157168206e+01 -3.4297292613956025e+06 +2.1643769822032297e+14 -3.7932928179261470e+21 
+4.0000000000000002e-01 +4.7418137880823110e+01 -3.4288838595448988e+06 +2.1632201300205759e+14 -3.7891721140515509e+21 
+5.0000000000000000e-01 +4.7418136333410800e+01 -3.4279047878110399e+06 +2.1618644702368781e+14 -3.7843066898679773e+21 
+6.0000000000000009e-01 +4.7418134556749607e+01 -3.4268402423044019e+06 +2.1603688540235919e+14 -3.7788898356762583e+21 
+7.0000000000000007e-01 +4.7418132592665316e+01 -3.4257384237137227e+06 +2.1587921378700084e+14 -3.7731148579142956e+21 
+8.0000000000000004e-01 +4.7418130482978100e+01 -3.4246475294826711e+06 +2.1571931745547431e+14 -3.7671750518342083e+21 
+9.0000000000000002e-01 +4.7418128269509040e+01 -3.4236157574186567e+06 +2.1556308172326216e+14 -3.7612637137823424e+21 
+1.0000000000000000e+00 +4.7418125994082295e+01 -3.4226913072581971e+06 +2.1541639212981662e+14 -3.7555741468824227e+21 
+1.1000000000000001e+00 +4.7418123697001214e+01 -3.4219195612004893e+06 +2.1528520114195075e+14 -3.7503112692465019e+21 
+1.2000000000000002e+00 +4.7418121412508597e+01 -3.4213346450530179e+06 +2.1517573052457628e+14 -3.7457265069230276e+21 
+1.3000000000000000e+00 +4.7418119173327284e+01 -3.4209678673207178e+06 +2.1509426898496812e+14 -3.7420829012207867e+21 
+1.4000000000000001e+00 +4.7418117012183579e+01 -3.4208505389022939e+06 +2.1504710552279422e+14 -3.7396435025439050e+21 
+1.5000000000000000e+00 +4.7418114961800569e+01 -3.4210139684941769e+06 +2.1504052886757591e+14 -3.7386713528582679e+21 
+1.6000000000000001e+00 +4.7418113054904680e+01 -3.4214894670510446e+06 +2.1508082802332700e+14 -3.7394295026597961e+21 
+1.7000000000000002e+00 +4.7418111324216511e+01 -3.4223083417524700e+06 +2.1517429154615206e+14 -3.7421809887163864e+21 
+1.8000000000000000e+00 +4.7418109802465608e+01 -3.4235019054622017e+06 +2.1532720866104603e+14 -3.7471888682182797e+21 
+1.9000000000000001e+00 +4.7418108522371575e+01 -3.4251014649097826e+06 +2.1554586787895847e+14 -3.7547161766684273e+21 
+2.0000000000000000e+00 +4.7418107516663412e+01 -3.4271383322143243e+06 +2.1583655831629622e+14 -3.7650259675807828e+21 
+2.1000000000000001e+00 +4.7418106783556055e+01 -3.4296109392578779e+06 +2.1620011172465916e+14 -3.7781700661419154e+21 
+2.2000000000000002e+00 +4.7418106183232794e+01 -3.4323862087227493e+06 +2.1661553157708612e+14 -3.7933554168761444e+21 
+2.3000000000000003e+00 +4.7418105541374224e+01 -3.4352981896987939e+06 +2.1705636473025856e+14 -3.8095777582371989e+21 
+2.4000000000000004e+00 +4.7418104683651997e+01 -3.4381809255259642e+06 +2.1749615736483338e+14 -3.8258328080775171e+21 
+2.5000000000000000e+00 +4.7418103435745827e+01 -3.4408684648205778e+06 +2.1790845628313509e+14 -3.8411163032043641e+21 
+2.6000000000000001e+00 +4.7418101623334870e+01 -3.4431948554310990e+06 +2.1826680818683094e+14 -3.8544239772206692e+21 
+2.7000000000000002e+00 +4.7418099072092872e+01 -3.4449941422920129e+06 +2.1854475945030100e+14 -3.8647515539734518e+21 
+2.8000000000000003e+00 +4.7418095607699314e+01 -3.4461003735383688e+06 +2.1871585681066525e+14 -3.8710947681672427e+21 
+2.9000000000000004e+00 +4.7418091055827944e+01 -3.4463475940639856e+06 +2.1875364663890747e+14 -3.8724493435739948e+21 
+3.0000000000000000e+00 +4.7418085242157254e+01 -3.4455698515844648e+06 +2.1863167562888688e+14 -3.8678110136665936e+21 
+3.1000000000000001e+00 +4.7418078065756767e+01 -3.4436709364554123e+06 +2.1833449467565481e+14 -3.8565907975196964e+21 
+3.2000000000000002e+00 +4.7418069719271571e+01 -3.4408336176846954e+06 +2.1789067246221631e+14 -3.8398608871379184e+21 
+3.3000000000000003e+00 +4.7418060468739178e+01 -3.4373104078667844e+06 +2.1733978198407619e+14 -3.8191087635120055e+21 
+3.4000000000000004e+00 +4.7418050580194134e+01 -3.4333538180603115e+06 +2.1672139607588494e+14 -3.7958219030643967e+21 
+3.5000000000000000e+00 +4.7418040319673210e+01 -3.4292163601132059e+06 +2.1607508763130772e+14 -3.7714877834325257e+21 
+3.6000000000000001e+00 +4.7418029953215331e+01 -3.4251505477940091e+06 +2.1544042979918838e+14 -3.7475938905564743e+21 
+3.7000000000000002e+00 +4.7418019746855720e+01 -3.4214088921377333e+06 +2.1485699538653969e+14 -3.7256276995777841e+21 
+3.8000000000000003e+00 +4.7418009966631402e+01 -3.4182439055896550e+06 +2.1436435738298541e+14 -3.7070766915268279e+21 
+3.9000000000000004e+00 +4.7418000878580017e+01 -3.4159081009594449e+06 +2.1400208881417603e+14 -3.6934283483870795e+21 
+4.0000000000000000e+00 +4.7417992748738172e+01 -3.4146539902121667e+06 +2.1380976260165922e+14 -3.6861701488999368e+21 
+4.1000000000000005e+00 +4.7417985760183704e+01 -3.4146546376036005e+06 +2.1381450929256775e+14 -3.6863233187516090e+21 
+4.2000000000000002e+00 +4.7417979764163377e+01 -3.4157653184177196e+06 +2.1399369014549097e+14 -3.6930440777336131e+21 
+4.2999999999999998e+00 +4.7417974528964997e+01 -3.4177618599595614e+06 +2.1431222400464472e+14 -3.7050223912200333e+21 
+4.4000000000000004e+00 +4.7417969822874468e+01 -3.4204200885244641e+06 +2.1473502960589175e+14 -3.7209482214567948e+21 
+4.5000000000000000e+00 +4.7417965414180806e+01 -3.4235158320928263e+06 +2.1522702587025688e+14 -3.7395115361176120e+21 
+4.6000000000000005e+00 +4.7417961071171185e+01 -3.4268249174218960e+06 +2.1575313157349950e+14 -3.7594022984317817e+21 
+4.7000000000000002e+00 +4.7417956562133220e+01 -3.4301231719894963e+06 +2.1627826559335103e+14 -3.7793104750145637e+21 
+4.8000000000000007e+00 +4.7417951655355317e+01 -3.4331864233079767e+06 +2.1676734679463247e+14 -3.7979260318225326e+21 
+4.9000000000000004e+00 +4.7417946119123130e+01 -3.4357904975166335e+06 +2.1718529389491078e+14 -3.8139389305446686e+21 
+5.0000000000000000e+00 +4.7417939721725212e+01 -3.4377112222989388e+06 +2.1749702577955053e+14 -3.8260391377569689e+21 
+5.1000000000000005e+00 +4.7417932290673434e+01 -3.4387819155527339e+06 +2.1767642584979325e+14 -3.8332488061292710e+21 
+5.2000000000000002e+00 +4.7417923890366801e+01 -3.4390658523405869e+06 +2.1773323516093991e+14 -3.8359188207443174e+21 
+5.3000000000000007e+00 +4.7417914644432187e+01 -3.4386838003791696e+06 +2.1768615954124275e+14 -3.8347322600797629e+21 
+5.4000000000000004e+00 +4.7417904676495930e+01 -3.4377565271750353e+06 +2.1755390480798766e+14 -3.8303722025405739e+21 
+5.5000000000000000e+00 +4.7417894110179375e+01 -3.4364047971431413e+06 +2.1735517641560575e+14 -3.8235217154679049e+21 
+5.6000000000000005e+00 +4.7417883069108491e+01 -3.4347493775932658e+06 +2.1710868015968234e+14 -3.8148638766344558e+21 
+5.7000000000000002e+00 +4.7417871676909705e+01 -3.4329110360588296e+06 +2.1683312185448091e+14 -3.8050817642257323e+21 
+5.8000000000000007e+00 +4.7417860057206106e+01 -3.4310105381119153e+06 +2.1654720709385394e+14 -3.7948584498938684e+21 
+5.9000000000000004e+00 +4.7417848333625052e+01 -3.4291686517598280e+06 +2.1626964174513719e+14 -3.7848770134254986e+21 
+6.0000000000000000e+00 +4.7417836629787708e+01 -3.4275061415749681e+06 +2.1601913129532419e+14 -3.7758205233861136e+21 
+6.1000000000000005e+00 +4.7417825042715812e+01 -3.4261183304545628e+06 +2.1581047201470181e+14 -3.7682304872347027e+21 
+6.2000000000000002e+00 +4.7417813562992372e+01 -3.4249987521625175e+06 +2.1564282084969509e+14 -3.7620820960936539e+21 
+6.3000000000000007e+00 +4.7417802154603493e+01 -3.4241155004586168e+06 +2.1551142572848869e+14 -3.7572089860569076e+21 
+6.4000000000000004e+00 +4.7417790781526520e+01 -3.4234366639460046e+06 +2.1541153399556791e+14 -3.7534447758026106e+21 
+6.5000000000000000e+00 +4.7417779407740099e+01 -3.4229303321096911e+06 +2.1533839309671247e+14 -3.7506230870278459e+21 
+6.6000000000000005e+00 +4.7417767997229376e+01 -3.4225645981735876e+06 +2.1528725090481959e+14 -3.7485775542993179e+21 
+6.7000000000000002e+00 +4.7417756513972236e+01 -3.4223075510089309e+06 +2.1525335479137406e+14 -3.7471417970360603e+21 
+6.8000000000000007e+00 +4.7417744921950273e+01 -3.4221272819043738e+06 +2.1523195240972309e+14 -3.7461494431888719e+21 
+6.9000000000000004e+00 +4.7417733185143199e+01 -3.4219918807039405e+06 +2.1521829124122822e+14 -3.7454341154827335e+21 
+7.0000000000000000e+00 +4.7417721267532691e+01 -3.4218694387015579e+06 +2.1520761893869022e+14 -3.7448294418435964e+21 
+7.1000000000000005e+00 +4.7417709142232198e+01 -3.4217352986186775e+06 +2.1519617436138488e+14 -3.7442044734097840e+21 
+7.2000000000000002e+00 +4.7417696818887059e+01 -3.4215938122315453e+06 +2.1518416158176206e+14 -3.7435699658148733e+21 
+7.3000000000000007e+00 +4.7417684316281338e+01 -3.4214565869467817e+06 +2.1517277635843219e+14 -3.7429721122840558e+21 
+7.4000000000000004e+00 +4.7417671653192869e+01 -3.4213352264870503e+06 +2.1516321403010825e+14 -3.7424570934510155e+21 
+7.5000000000000000e+00 +4.7417658848402716e+01 -3.4212413364653508e+06 +2.1515667014932803e+14 -3.7420710963287734e+21 
+7.6000000000000005e+00 +4.7417645920691541e+01 -3.4211865221977578e+06 +2.1515434023296909e+14 -3.7418603068326318e+21 
+7.7000000000000002e+00 +4.7417632888838568e+01 -3.4211823883926976e+06 +2.1515741973991875e+14 -3.7418709093335328e+21 
+7.8000000000000007e+00 +4.7417619771626676e+01 -3.4212405415423536e+06 +2.1516710431391347e+14 -3.7421490934280786e+21 
+7.9000000000000004e+00 +4.7417606587834165e+01 -3.4213725859053559e+06 +2.1518458936738778e+14 -3.7427410421765190e+21 
+8.0000000000000000e+00 +4.7417593356241206e+01 -3.4215901263566734e+06 +2.1521107035800266e+14 -3.7436929395578577e+21 
+8.0999999999999996e+00 +4.7417580085322051e+01 -3.4218967068522358e+06 +2.1524678892578253e+14 -3.7450147422520214e+21 
+8.2000000000000011e+00 +4.7417566742312246e+01 -3.4222636168700750e+06 +2.1528817010170431e+14 -3.7465714556688731e+21 
+8.3000000000000007e+00 +4.7417553284140055e+01 -3.4226540839950023e+06 +2.1533068497496566e+14 -3.7481918539458748e+21 
+8.4000000000000004e+00 +4.7417539667734005e+01 -3.4230313359425957e+06 +2.1536980465062238e+14 -3.7497047117193680e+21 
+8.5000000000000000e+00 +4.7417525850023601e+01 -3.4233586008190322e+06 +2.1540100026832850e+14 -3.7509388045004602e+21 
+8.5999999999999996e+00 +4.7417511787935204e+01 -3.4235991049349979e+06 +2.1541974276841716e+14 -3.7517229019111584e+21 
+8.7000000000000011e+00 +4.7417497438398655e+01 -3.4237160769120376e+06 +2.1542150336385947e+14 -3.7518857818972231e+21 
+8.8000000000000007e+00 +4.7417482758342409e+01 -3.4236727442860692e+06 +2.1540175313220091e+14 -3.7512562181561490e+21 
+8.9000000000000004e+00 +4.7417467704696300e+01 -3.4234323355040061e+06 +2.1535596325965184e+14 -3.7496629877156872e+21 
+9.0000000000000000e+00 +4.7417452234387028e+01 -3.4229580771480915e+06 +2.1527960471975678e+14 -3.7469348612371597e+21 
+9.0999999999999996e+00 +4.7417436324257970e+01 -3.4222312207895480e+06 +2.1517055164532797e+14 -3.7429905517000875e+21 
+9.2000000000000011e+00 +4.7417420030807712e+01 -3.4213051117988098e+06 +2.1503629015416288e+14 -3.7381085227944588e+21 
+9.3000000000000007e+00 +4.7417403430450186e+01 -3.4202511196343699e+06 +2.1488670941616272e+14 -3.7326571772399405e+21 
+9.4000000000000004e+00 +4.7417386599600306e+01 -3.4191406144247879e+06 +2.1473169867858209e+14 -3.7270049200806125e+21 
+9.5000000000000000e+00 +4.7417369614669333e+01 -3.4180449641455435e+06 +2.1458114694731384e+14 -3.7215201492157548e+21 
+9.6000000000000014e+00 +4.7417352552074405e+01 -3.4170355402199095e+06 +2.1444494361888044e+14 -3.7165712741967861e+21 
+9.7000000000000011e+00 +4.7417335488226719e+01 -3.4161837106625191e+06 +2.1433297770803950e+14 -3.7125266932758196e+21 
+9.8000000000000007e+00 +4.7417318499539086e+01 -3.4155608440884715e+06 +2.1425513827641075e+14 -3.7097548056981726e+21 
+9.9000000000000004e+00 +4.7417301662426595e+01 -3.4152383109946037e+06 +2.1422131463063488e+14 -3.7086240186133717e+21 
+1.0000000000000000e+01 +4.7417285053304205e+01 -3.4152874814196252e+06 +2.1424139600420888e+14 -3.7095027365960027e+21 
+1.0100000000000001e+01 +4.7417268722951000e+01 -3.4157553985504042e+06 +2.1432177777504075e+14 -3.7126284751371171e+21 
+1.0200000000000001e+01 +4.7417252619615702e+01 -3.4165918055462050e+06 +2.1445488071444372e+14 -3.7177152172989738e+21 
+1.0300000000000001e+01 +4.7417236665912249e+01 -3.4177221191062871e+06 +2.1462963176856506e+14 -3.7243460577029023e+21 
+1.0400000000000000e+01 +4.7417220784459346e+01 -3.4190717588605960e+06 +2.1483495822605378e+14 -3.7321041014102122e+21 
+1.0500000000000000e+01 +4.7417204897868572e+01 -3.4205661402662499e+06 +2.1505978690035328e+14 -3.7405724392274663e+21 
+1.0600000000000001e+01 +4.7417188928757930e+01 -3.4221306824217658e+06 +2.1529304500973378e+14 -3.7493341739016604e+21 
+1.0700000000000001e+01 +4.7417172799741799e+01 -3.4236908023523199e+06 +2.1552365954335603e+14 -3.7579724014626223e+21 
+1.0800000000000001e+01 +4.7417156433435963e+01 -3.4251719181182724e+06 +2.1574055761961881e+14 -3.7660702220261319e+21 
+1.0900000000000000e+01 +4.7417139752454339e+01 -3.4264994462658651e+06 +2.1593266615543556e+14 -3.7732107291009913e+21 
+1.1000000000000000e+01 +4.7417122679413325e+01 -3.4275988051829338e+06 +2.1608891230675584e+14 -3.7789770239338868e+21 
+1.1100000000000001e+01 +4.7417105156288578e+01 -3.4284152402298027e+06 +2.1620126147167247e+14 -3.7830675678670336e+21 
+1.1200000000000001e+01 +4.7417087202478214e+01 -3.4289732964200848e+06 +2.1627383112061769e+14 -3.7856422366563396e+21 
+1.1300000000000001e+01 +4.7417068856752429e+01 -3.4293173534571948e+06 +2.1631377785817381e+14 -3.7869762931261634e+21 
+1.1400000000000000e+01 +4.7417050157870584e+01 -3.4294917846782929e+06 +2.1632825756767128e+14 -3.7873449785808011e+21 
+1.1500000000000000e+01 +4.7417031144593182e+01 -3.4295409641465554e+06 +2.1632442621413675e+14 -3.7870235367406646e+21 
+1.1600000000000001e+01 +4.7417011855685864e+01 -3.4295092689588135e+06 +2.1630944010942256e+14 -3.7862872217219058e+21 
+1.1700000000000001e+01 +4.7416992329909768e+01 -3.4294410733364760e+06 +2.1629045522881162e+14 -3.7854112774333656e+21 
+1.1800000000000001e+01 +4.7416972606027912e+01 -3.4293807529581143e+06 +2.1627462773016347e+14 -3.7846709535362976e+21 
+1.1900000000000000e+01 +4.7416952722803096e+01 -3.4293726830983651e+06 +2.1626911370930212e+14 -3.7843414975322003e+21 
+1.2000000000000000e+01 +4.7416932718996868e+01 -3.4294612384144701e+06 +2.1628106920127431e+14 -3.7846981552910930e+21 
+1.2100000000000001e+01 +4.7416912623072520e+01 -3.4296781994908177e+06 +2.1631561764962994e+14 -3.7859386305005759e+21 
+1.2200000000000001e+01 +4.7416892422286629e+01 -3.4300049626350612e+06 +2.1636975125012966e+14 -3.7879504323000140e+21 
+1.2300000000000001e+01 +4.7416872093597050e+01 -3.4304103299240274e+06 +2.1643842959548644e+14 -3.7905435274122725e+21 
+1.2400000000000000e+01 +4.7416851613961136e+01 -3.4308631029378315e+06 +2.1651661221356931e+14 -3.7935278804868813e+21 
+1.2500000000000000e+01 +4.7416830960337577e+01 -3.4313320842219014e+06 +2.1659925875070909e+14 -3.7967134598726518e+21 
+1.2600000000000001e+01 +4.7416810109680348e+01 -3.4317860736287753e+06 +2.1668132855297106e+14 -3.7999102250394237e+21 
+1.2700000000000001e+01 +4.7416789038949034e+01 -3.4321938740701671e+06 +2.1675778129596412e+14 -3.8029281449661337e+21 
+1.2800000000000001e+01 +4.7416767725099724e+01 -3.4325242864492303e+06 +2.1682357643620669e+14 -3.8055771822801478e+21 
+1.2900000000000000e+01 +4.7416746145091651e+01 -3.4327461136539583e+06 +2.1687367365982941e+14 -3.8076673065237065e+21 
+1.3000000000000000e+01 +4.7416724275880782e+01 -3.4328281565481708e+06 +2.1690303241578966e+14 -3.8090084800172634e+21 
+1.3100000000000001e+01 +4.7416702102034577e+01 -3.4327484570683124e+06 +2.1690799479606562e+14 -3.8094611237716576e+21 
+1.3200000000000001e+01 +4.7416679638567999e+01 -3.4325220216341140e+06 +2.1689043342752781e+14 -3.8090874912874541e+21 
+1.3300000000000001e+01 +4.7416656908107683e+01 -3.4321730977207390e+06 +2.1685360356744556e+14 -3.8080002941629309e+21 
+1.3400000000000000e+01 +4.7416633933277936e+01 -3.4317259315171577e+06 +2.1680076033078559e+14 -3.8063122398084050e+21 
+1.3500000000000000e+01 +4.7416610736702872e+01 -3.4312047690665033e+06 +2.1673515881440956e+14 -3.8041360350728563e+21 
+1.3600000000000001e+01 +4.7416587341010143e+01 -3.4306338586567282e+06 +2.1666005438197156e+14 -3.8015843949955326e+21 
+1.3700000000000001e+01 +4.7416563768824339e+01 -3.4300374463005280e+06 +2.1657870210870791e+14 -3.7987700254470680e+21 
+1.3800000000000001e+01 +4.7416540042770777e+01 -3.4294397790590562e+06 +2.1649435722652244e+14 -3.7958056376687993e+21 
+1.3900000000000000e+01 +4.7416516185475210e+01 -3.4288651037201961e+06 +2.1641027490270684e+14 -3.7928039403418409e+21 
+1.4000000000000000e+01 +4.7416492219562691e+01 -3.4283376669702469e+06 +2.1632971031449403e+14 -3.7898776428589036e+21 
+1.4100000000000001e+01 +4.7416468166745446e+01 -3.4278804030418978e+06 +2.1625584705068231e+14 -3.7871373427995569e+21 
+1.4200000000000001e+01 +4.7416444045083672e+01 -3.4275109953835360e+06 +2.1619158220477828e+14 -3.7846851857336794e+21 
+1.4300000000000001e+01 +4.7416419871723555e+01 -3.4272458147341441e+06 +2.1613974128516566e+14 -3.7826212061484275e+21 
+1.4400000000000000e+01 +4.7416395663812956e+01 -3.4271012325890260e+06 +2.1610314986668891e+14 -3.7810454401269964e+21 
+1.4500000000000000e+01 +4.7416371438498018e+01 -3.4270936194393383e+06 +2.1608463341400003e+14 -3.7800579205539703e+21 
+1.4600000000000001e+01 +4.7416347212924705e+01 -3.4272393457352887e+06 +2.1608701738964638e+14 -3.7797586802844243e+21 
+1.4700000000000001e+01 +4.7416323004240645e+01 -3.4275547829096718e+06 +2.1611312736884625e+14 -3.7802477555667200e+21 
+1.4800000000000001e+01 +4.7416298829593700e+01 -3.4280563022036576e+06 +2.1616578888613375e+14 -3.7816251810926795e+21 
+1.4900000000000000e+01 +4.7416274706129606e+01 -3.4287602743982500e+06 +2.1624782746755016e+14 -3.7839909920917579e+21 
+1.5000000000000000e+01 +4.7416250650995977e+01 -3.4296830703798975e+06 +2.1636206859595806e+14 -3.7874452214905291e+21 
+1.5100000000000001e+01 +4.7416226665458602e+01 -3.4308267089525131e+06 +2.1650920696206238e+14 -3.7920165137394665e+21 
+1.5200000000000001e+01 +4.7416202687264892e+01 -3.4321358024371923e+06 +2.1668141410108334e+14 -3.7974479560747967e+21 
+1.5300000000000001e+01 +4.7416178638284201e+01 -3.4335406123998687e+06 +2.1686873086234694e+14 -3.8034112496303929e+21 
+1.5400000000000000e+01 +4.7416154440383472e+01 -3.4349713993097860e+06 +2.1706119798186056e+14 -3.8095780923319077e+21 
+1.5500000000000000e+01 +4.7416130015432067e+01 -3.4363584247328611e+06 +2.1724885630894816e+14 -3.8156201853131502e+21 
+1.5600000000000001e+01 +4.7416105285295359e+01 -3.4376319480813551e+06 +2.1742174645415488e+14 -3.8212092226542276e+21 
+1.5700000000000001e+01 +4.7416080171842211e+01 -3.4387222308430467e+06 +2.1756990926751728e+14 -3.8260169056828491e+21 
+1.5800000000000001e+01 +4.7416054596942104e+01 -3.4395595347055024e+06 +2.1768338560983341e+14 -3.8297149358033758e+21 
+1.5900000000000000e+01 +4.7416028482460902e+01 -3.4400741192680579e+06 +2.1775221611056634e+14 -3.8319750076412057e+21 
+1.6000000000000000e+01 +4.7416001750267704e+01 -3.4401962462743684e+06 +2.1776644165329647e+14 -3.8324688235918902e+21 
+1.6100000000000001e+01 +4.7415974349462736e+01 -3.4398809406877384e+06 +2.1771966490465966e+14 -3.8309849698438642e+21 
+1.6199999999999999e+01 +4.7415946338088183e+01 -3.4391822925168280e+06 +2.1761973714069006e+14 -3.8277796136373259e+21 
+1.6300000000000001e+01 +4.7415917801414537e+01 -3.4381791534697870e+06 +2.1747807125929119e+14 -3.8232258014085220e+21 
